,centripetal_acceleration,angle
0,0.0011491723590296053,0.08407403768589027
1,0.0010646648692772735,0.1110614183633772
2,0.0009852067749528907,0.14670028058882947
3,0.0009105745777371954,0.18964793269232735
4,0.0008405518563828657,0.23100720303493966
5,0.0007749291210145927,0.2529402307492334
6,0.0007135036689073157,0.241946628932965
7,0.0006560794417436224,0.20502044439103798
8,0.0006024668843496527,0.1608022519194722
9,0.0005524828049091239,0.12182308212205051
10,0.0005059502366568933,0.09155003732564261
11,0.000462698301050194,0.06909623749793799
12,0.00042256207241928555,0.052583391675478805
13,0.0003853824440961162,0.04034101455276609
14,0.00035100599602205747,0.031130819841011195
15,0.0003192848638340378,0.02408790100579043
16,0.00029007660942929187,0.018619058787144423
17,0.0002632440930088785,0.014319620383304865
18,0.0002386553465996705,0.010916738714806366
19,0.00021618344905511829,0.008235698476955064
20,0.0001957064025344891,0.006185907023539746
21,0.0001771070104607904,0.00476092590417885
22,0.0001602727569574134,0.004015841928502032
23,0.0001450956877632844,0.003939692990292674
24,0.00013147229262663407,0.004338844619929754
25,0.00011930338917744814,0.0049712901539923195
26,0.00010849400827861419,0.00568393949942499
27,9.895328085549901e-05,0.006404653586385701
28,9.059432620434677e-05,0.0071033559790184475
29,8.333414177914097e-05,0.007768974931424637
30,7.709349445726341e-05,0.00839880446573161
31,7.179681328357806e-05,0.008993766451492614
32,6.737208369337423e-05,0.009556265804563518
33,6.375074321369014e-05,0.0100892001721139
34,6.0867578643438956e-05,0.010595501033284603
35,5.866062471212938e-05,0.011077927298262156
36,5.707106421710844e-05,0.011538981515840346
37,5.604312963955914e-05,0.011980885991586648
38,5.5524006239085365e-05,0.01240558768825912
39,5.546373662685162e-05,0.012814776164727662
40,5.5815126817452685e-05,0.01320990654177922
41,5.653365375935334e-05,0.013592223461726475
42,5.757737434391588e-05,0.013962784087521708
43,5.890683589316393e-05,0.014322479281684642
44,6.0484988126084705e-05,0.014672052676915712
45,6.227709660352648e-05,0.015012117643030972
46,6.425065765186014e-05,0.015343172295857204
47,6.637531476512137e-05,0.015665612752492505
48,6.862277648584847e-05,0.015979744854139027
49,7.096673576454022e-05,0.01628579457065185
50,7.338279079771778e-05,0.016583917283805504
51,7.584836734466159e-05,0.016874206125017943
52,7.834264252269728e-05,0.0171566995199898
53,8.084647008119138e-05,0.017431388071335922
54,8.334230715409268e-05,0.017698220889229798
55,8.581414249115611e-05,0.017957111462053886
56,8.824742616777384e-05,0.01820794314177583
57,9.062900077341081e-05,0.018450574303734875
58,9.294703407876518e-05,0.018684843228101596
59,9.519095318132069e-05,0.018910572737115442
60,9.735138012986385e-05,0.01912757461302701
61,9.942006902727227e-05,0.01933565381188467
62,0.00010138984461224794,0.019534612480996718
63,0.00010325454231940553,0.01972425378051559
64,0.00010500894981820137,0.019904385504608706
65,0.00010664875003030064,0.020074823492790418
66,0.00010817046562577424,0.020235394818543084
67,0.00010957140499770093,0.020385940740131617
68,0.00011084960971557189,0.020526319396580752
69,0.00011200380345724483,0.02065640823163854
70,0.00011303334241953577,0.02077610612886569
71,0.00011393816720735131,0.020885335241833686
72,0.00011471875620171376,0.020984042506180918
73,0.00011537608040600166,0.02107220082198447
74,0.00011591155977120588,0.02114980989895959
75,0.00011632702099959185,0.021216896760304832
76,0.00011662465682699945,0.02127351590510188
77,0.00011680698678392856,0.021319749133385447
78,0.00011687681943493852,0.02135570504245717
79,0.00011683721609710278,0.021381518206970568
80,0.00011669145603662559,0.021397348059538242
81,0.00011644300314450076,0.021403377492355286
82,0.00011609547409048657,0.021399811203280893
83,0.00011565260795586417,0.02138687381305257
84,0.00011511823734480401,0.021364807782273332
85,0.00011449626097426964,0.021333871158433493
86,0.0001137906177427299,0.02129433518434202
87,0.00011300526227728537,0.021246481799595193
88,0.0001121441419595395,0.02119060106643939
89,0.0001112111754300741,0.021126988550699204
90,0.00011021023257157718,0.0210559426870231
91,0.00010914511597055414,0.02097776215564842
92,0.00010801954385764267,0.020892743296316824
93,0.00010683713452664845,0.020801177581810843
94,0.00010560139223206376,0.02070334917102413
95,0.00010431569456542803,0.02059953255925619
96,0.00010298328131004545,0.020489990339213008
97,0.00010160724477452327,0.02037497108472932
98,0.00010019052160488378,0.020254707365044058
99,9.873588607528084e-05,0.020129413895654508
100,9.724594485736747e-05,0.019999285828721777
101,9.572313326825547e-05,0.019864497183637416
102,9.416971299711605e-05,0.019725199416507
103,9.258777131047048e-05,0.019581520124991366
104,9.097922173597111e-05,0.019433561883721664
105,8.934580622492722e-05,0.019281401203826615
106,8.768909879343628e-05,0.019125087609101924
107,8.601051064203046e-05,0.018964642820584916
108,8.431129675414915e-05,0.01880006004073817
109,8.259256397305131e-05,0.018631303327742453
110,8.085528055743012e-05,0.01845830705078935
111,7.910041812184143e-05,0.018280989222865137
112,7.73302912416756e-05,0.018099393756295334
113,7.554862768961891e-05,0.01791370878516353
114,7.375927439148219e-05,0.017724137223713753
115,7.196604790019093e-05,0.017530881266608726
116,7.017271551125886e-05,0.017334140177935914
117,6.838297746666047e-05,0.017134108181039748
118,6.660045024729147e-05,0.016930972451980535
119,6.482865095364398e-05,0.016724911218343463
120,6.307098277504528e-05,0.01651609196267186
121,6.133072154739269e-05,0.016304669728069897
122,5.961100339904921e-05,0.01609078552209058
123,5.7914813485525884e-05,0.015874564813467867
124,5.6244975812304196e-05,0.015656116114247692
125,5.4604144146231505e-05,0.015435529640069051
126,5.299479401535485e-05,0.015212876038754139
127,5.141921579708253e-05,0.014988205177630155
128,4.9879508894887176e-05,0.014761544978939029
129,4.8377577003387196e-05,0.014532900292052607
130,4.691512446184495e-05,0.014302251791162424
131,4.54936536961368e-05,0.014069554886710545
132,4.41144637491339e-05,0.013834738638900574
133,4.277864989948608e-05,0.013597704661889618
134,4.148710436889395e-05,0.013358326007325904
135,4.024051811777846e-05,0.013116446016587374
136,3.903938372934353e-05,0.01287187713212914
137,3.788399938217436e-05,0.012624399658867988
138,3.677447391113221e-05,0.012373760468294507
139,3.57107329568031e-05,0.012119671640144188
140,3.469252620329908e-05,0.011861809038098782
141,3.371943570450996e-05,0.011599810820428076
142,3.279088529879243e-05,0.011333275889880503
143,3.190615111210093e-05,0.011061762293755517
144,3.106437314952569e-05,0.010784785592585507
145,3.026456797524141e-05,0.010501817227064529
146,2.9505642480993638e-05,0.010212282927837902
147,2.8786408742833456e-05,0.009915561233868156
148,2.8105599966482948e-05,0.009610982214691742
149,2.7461887520975735e-05,0.009297826535154471
150,2.6853899060807507e-05,0.008975325063608838
151,2.6280237736509382e-05,0.008642659318248617
152,2.573950249361417e-05,0.008298963187850132
153,2.5230309460110732e-05,0.007943326585809526
154,2.4751314422258677e-05,0.007574802048398771
155,2.4301236388912964e-05,0.007192415870991254
156,2.3878882244218125e-05,0.0067951863621127425
157,2.348317248875567e-05,0.00638215352851526
158,2.311316806910789e-05,0.005952427669244553
159,2.2768098295905194e-05,0.005505270392994401
160,2.2447389850204853e-05,0.005040233650934983
161,2.2150696878423826e-05,0.004557407884599806
162,2.18779321755798e-05,0.004057887563166677
163,2.1629299457042458e-05,0.003544698982233566
164,2.140532671872843e-05,0.0030247821256236995
165,2.1206900685621002e-05,0.002513530009683917
166,2.103530234885697e-05,0.002045568245052554
167,2.0892243591142295e-05,0.001697095516130176
168,2.0779904900629043e-05,0.001598578560526216
169,2.0700974173279142e-05,0.0018387512344598305
170,2.0658686603548303e-05,0.0023556418243439827
171,2.0656865663575616e-05,0.0030453313344984364
172,2.0699965170818223e-05,0.0038461105803860203
173,2.0793112444067524e-05,0.004728865990486773
174,2.094215254789838e-05,0.0056796858944589594
175,2.1153693625583662e-05,0.006691224303531852
176,2.1435153320439868e-05,0.007758879441267837
177,2.1794806285548854e-05,0.008878990513065014
178,2.224183278195359e-05,0.010047877962955896
179,2.2786368365322784e-05,0.011261254714070756
180,2.343955466093734e-05,0.012513812828855537
181,2.421359122719104e-05,0.013798903897766808
182,2.512178850755053e-05,0.015108282471428335
183,2.617862187082444e-05,0.016431907381067153
184,2.739978673996686e-05,0.017757810123128333
185,2.8802254809303692e-05,0.01907204803037505
186,3.0404331350139298e-05,0.02035876446644461
187,3.222571360481022e-05,0.021600378911108532
188,3.428755026921552e-05,0.022777926040711438
189,3.6612502063714504e-05,0.023871554197271074
190,3.922480339251107e-05,0.02486117987943308
191,4.2150325091384884e-05,0.02572727686590213
192,4.541663826398717e-05,0.026451758269819166
193,4.905307920643041e-05,0.027018890368565758
194,5.3090815420370394e-05,0.02741616238710435
195,5.7562912714569913e-05,0.02763503041748936
196,6.250440339475342e-05,0.02767145909190239
197,6.795235554205916e-05,0.02752620212729469
198,7.394594337978553e-05,0.027204790394807086
199,8.05265187286605e-05,0.026717229279216933
200,8.773768355047485e-05,0.026077439898188386
201,9.56253635801845e-05,0.025302505446183753
202,0.00010423788304645116,0.024411800252199484
203,0.00011362604048055822,0.02342608332614018
204,0.00012384318561385656,0.022366631077906398
205,0.0001349452973635279,0.021254468428426446
206,0.00014699106290683717,0.020109737592513444
207,0.00016004195784382548,0.018951223236614294
208,0.00017416232744844434,0.017796034471693763
209,0.00018941946900799734,0.01665942997909448
210,0.00020588371525124223,0.015554763016754689
211,0.00022362851886470494,0.01449351772867945
212,0.00024273053809748188,0.013485406175356377
213,0.0002632697234546242,0.012538495808194702
214,0.00028532940547867203,0.01165933897833754
215,0.00030899638361991147,0.01085307930994463
216,0.00033436101619486807,0.010123514918765822
217,0.00036151731143328086,0.009473106727691862
218,0.0003905630196135068,0.008902932811983177
219,0.0004215997262864407,0.00841260690179059
220,0.00045473294658769924,0.00800019803060972
